Time,gENCLS2.delta,gENCLS2.P,gENCLS2.omega,GEN1.V,LOAD.V,GEN2.V,FAULT.V
0.0,8.571382931169826,0.40000007965348033,0.0,0.9999999968740182,0.9919935407908828,0.9999999975577938,0.9959841751764217
0.002,8.571382930930866,0.40000007964757717,-1.327525209050674e-11,0.9999999968741777,0.9919935407910163,0.999999997557873,0.9959841751765266
0.004,8.57138293021403,0.4000000796298684,-2.6548536498823458e-11,0.9999999968746562,0.991993540791417,0.9999999975581106,0.9959841751768412
0.006,8.57138292901942,0.40000007960035666,-3.981788582031588e-11,0.9999999968754533,0.9919935407920847,0.9999999975585065,0.9959841751773656
0.008,8.571382927347214,0.4000000795590465,-5.3081333242468687e-11,0.9999999968765694,0.9919935407930194,0.9999999975590608,0.9959841751780996
0.01,8.571382925197657,0.4000000795059438,-6.633691282706719e-11,0.999999996878004,0.991993540794221,0.9999999975597734,0.9959841751790431
0.012,8.571382922571074,0.40000007944105653,-7.958265979392099e-11,0.9999999968797568,0.9919935407956892,0.999999997560644,0.9959841751801959
0.014,8.571382919467847,0.4000000793643943,-9.281661082771729e-11,0.999999996881828,0.9919935407974237,0.9999999975616726,0.995984175181558
0.016,8.571382915888442,0.4000000792759687,-1.0603680436174457e-10,0.9999999968842168,0.9919935407994246,0.9999999975628592,0.9959841751831292
0.018,8.571382911833386,0.40000007917579233,-1.1924128087395202e-10,0.999999996886923,0.9919935408016911,0.9999999975642032,0.995984175184909
0.02,8.571382907303281,0.4000000790638806,-1.3242808315525352e-10,0.9999999968899463,0.9919935408042234,0.9999999975657048,0.9959841751868974
0.022,8.571382902298799,0.4000000789402498,-1.4559525664413637e-10,0.9999999968932864,0.9919935408070208,0.9999999975673637,0.9959841751890941
0.024,8.571382896820682,0.40000007880491817,-1.587408496625839e-10,0.9999999968969423,0.9919935408100828,0.9999999975691796,0.9959841751914986
0.026,8.57138289086974,0.40000007865790577,-1.7186291373834833e-10,0.9999999969009139,0.9919935408134093,0.9999999975711522,0.9959841751941108
0.028,8.571382884446859,0.4000000784992347,-1.8495950388404864e-10,0.9999999969052004,0.9919935408169995,0.9999999975732812,0.9959841751969299
0.03,8.571382877552985,0.40000007832892837,-1.9802867890093985e-10,0.9999999969098012,0.9919935408208531,0.9999999975755663,0.995984175199956
0.032,8.571382870189145,0.40000007814701183,-2.11068501647217e-10,0.9999999969147157,0.9919935408249692,0.9999999975780072,0.995984175203188
0.034,8.571382862356428,0.40000007795351217,-2.2407703932790664e-10,0.9999999969199432,0.9919935408293474,0.9999999975806037,0.9959841752066262
0.036,8.571382854055997,0.4000000777484581,-2.3705236377859045e-10,0.9999999969254828,0.9919935408339872,0.9999999975833549,0.9959841752102695
0.038,8.57138284528908,0.40000007753188,-2.4999255177996867e-10,0.9999999969313338,0.9919935408388877,0.9999999975862609,0.9959841752141175
0.04,8.571382836056976,0.40000007730380976,-2.628956852984081e-10,0.9999999969374951,0.991993540844048,0.9999999975893211,0.9959841752181697
0.042,8.571382826361058,0.40000007706428153,-2.7575985179742153e-10,0.999999996943966,0.9919935408494679,0.999999997592535,0.9959841752224257
0.044,8.571382816202759,0.4000000768133306,-2.8858314452447527e-10,0.9999999969507455,0.991993540855146,0.9999999975959022,0.9959841752268845
0.046,8.571382805583585,0.4000000765509941,-3.013636627885451e-10,0.9999999969578325,0.9919935408610817,0.9999999975994222,0.9959841752315455
0.048,8.57138279450511,0.4000000762773112,-3.1409951221916803e-10,0.9999999969652261,0.9919935408672745,0.9999999976030944,0.9959841752364084
0.05,8.571382782968978,0.40000007599232235,-3.2678880508100556e-10,0.9999999969729253,0.9919935408737228,0.9999999976069183,0.9959841752414718
0.052,8.571382770976896,0.40000007569606955,-3.3942966053443785e-10,0.9999999969809286,0.9919935408804259,0.9999999976108933,0.9959841752467357
0.054,8.571382758530644,0.40000007538859694,-3.5202020493008124e-10,0.999999996989235,0.9919935408873831,0.9999999976150189,0.9959841752521986
0.056,8.571382745632068,0.40000007506995017,-3.6455857206629797e-10,0.9999999969978434,0.991993540894593,0.9999999976192945,0.9959841752578603
0.058,8.571382732283077,0.40000007474017635,-3.7704290347292015e-10,0.9999999970067522,0.9919935409020547,0.9999999976237193,0.9959841752637196
0.06,8.571382718485648,0.4000000743993243,-3.8947134870885106e-10,0.9999999970159604,0.9919935409097671,0.9999999976282928,0.9959841752697757
0.062,8.571382704241833,0.40000007404744464,-4.018420655794841e-10,0.9999999970254666,0.9919935409177291,0.9999999976330143,0.9959841752760278
0.064,8.571382689553735,0.40000007368458934,-4.1415322046668536e-10,0.9999999970352692,0.9919935409259393,0.9999999976378829,0.995984175282475
0.066,8.571382674423536,0.4000000733108125,-4.2640298859247177e-10,0.9999999970453668,0.9919935409343964,0.999999997642898,0.9959841752891159
0.068,8.571382658853476,0.40000007292616935,-4.385895542657274e-10,0.999999997055758,0.9919935409430999,0.9999999976480592,0.9959841752959504
0.07,8.571382642845867,0.4000000725307169,-4.5071111116746893e-10,0.9999999970664414,0.9919935409520477,0.9999999976533653,0.9959841753029766
0.072,8.571382626403079,0.4000000721245137,-4.6276586261606566e-10,0.999999997077415,0.9919935409612387,0.9999999976588156,0.9959841753101939
0.074,8.571382609527548,0.40000007170762025,-4.747520218216659e-10,0.9999999970886776,0.9919935409706716,0.9999999976644095,0.9959841753176012
0.076,8.571382592221779,0.40000007128009796,-4.86667812173004e-10,0.9999999971002271,0.991993540980345,0.9999999976701458,0.9959841753251971
0.078,8.571382574488332,0.4000000708420102,-4.985114674764072e-10,0.999999997112062,0.9919935409902575,0.9999999976760239,0.9959841753329808
0.08,8.571382556329839,0.40000007039342234,-5.10281232241061e-10,0.9999999971241808,0.9919935410004076,0.999999997682043,0.9959841753409513
0.082,8.57138253774899,0.40000006993440046,-5.219753619257256e-10,0.9999999971365813,0.9919935410107938,0.9999999976882021,0.995984175349107
0.084,8.57138251874854,0.40000006946501293,-5.335921231885358e-10,0.999999997149262,0.9919935410214145,0.9999999976945003,0.995984175357447
0.086,8.571382499331309,0.40000006898532897,-5.451297941938548e-10,0.9999999971622208,0.9919935410322682,0.9999999977009365,0.9959841753659697
0.088,8.571382479500166,0.4000000684954199,-5.565866647772649e-10,0.9999999971754558,0.9919935410433532,0.99999999770751,0.9959841753746743
0.09,8.571382459258057,0.40000006799535825,-5.679610367832611e-10,0.999999997188965,0.9919935410546681,0.9999999977142198,0.9959841753835593
0.092,8.571382438607982,0.4000000674852181,-5.792512242672495e-10,0.9999999972027466,0.9919935410662108,0.9999999977210647,0.9959841753926234
0.094,8.571382417552998,0.40000006696507523,-5.904555537684775e-10,0.9999999972167983,0.99199354107798,0.9999999977280438,0.995984175401865
0.096,8.571382396096231,0.4000000664350065,-6.015723645675436e-10,0.9999999972311183,0.9919935410899737,0.9999999977351562,0.9959841754112831
0.098,8.571382374240859,0.4000000658950909,-6.126000088961061e-10,0.9999999972457042,0.9919935411021902,0.9999999977424006,0.9959841754208761
0.1,8.571382351990119,0.40000006534540794,-6.235368522175235e-10,0.9999999972605541,0.9919935411146278,0.9999999977497761,0.9959841754306427
0.102,8.571382329347314,0.4000000647860395,-6.343812734442719e-10,0.9999999972756656,0.9919935411272844,0.9999999977572817,0.9959841754405814
0.104,8.571382306315796,0.40000006421706813,-6.451316651892887e-10,0.9999999972910365,0.9919935411401584,0.9999999977649159,0.9959841754506907
0.106,8.57138228289898,0.4000000636385785,-6.557864340018937e-10,0.9999999973066643,0.9919935411532478,0.999999997772678,0.9959841754609691
0.108,8.57138225910034,0.40000006305065616,-6.663440006098801e-10,0.9999999973225473,0.9919935411665505,0.9999999977805665,0.995984175471415
0.11,8.5713822349234,0.4000000624533883,-6.768028001477267e-10,0.9999999973386827,0.9919935411800647,0.9999999977885806,0.9959841754820272
0.112,8.571382210371741,0.40000006184686343,-6.871612823971466e-10,0.9999999973550681,0.9919935411937884,0.9999999977967188,0.9959841754928037
0.114,8.571382185449009,0.40000006123117154,-6.974179119798337e-10,0.9999999973717011,0.9919935412077195,0.99999999780498,0.995984175503743
0.116,8.571382160158894,0.40000006060640364,-7.075711686535225e-10,0.9999999973885794,0.9919935412218559,0.9999999978133629,0.9959841755148438
0.118,8.571382134505143,0.40000005997265287,-7.176195474677279e-10,0.9999999974057003,0.9919935412361958,0.9999999978218665,0.9959841755261041
0.12,8.571382108491562,0.40000005933001254,-7.275615590289649e-10,0.9999999974230614,0.9919935412507365,0.9999999978304892,0.9959841755375223
0.122,8.571382082122005,0.4000000586785781,-7.373957297104572e-10,0.99999999744066,0.9919935412654763,0.9999999978392301,0.9959841755490967
0.124,8.571382055400381,0.4000000580184463,-7.471206018633884e-10,0.9999999974584937,0.991993541280413,0.9999999978480876,0.9959841755608256
0.126,8.57138202833065,0.4000000573497148,-7.567347340466562e-10,0.9999999974765595,0.9919935412955442,0.9999999978570604,0.9959841755727076
0.128,8.571382000916826,0.4000000566724829,-7.662367012257875e-10,0.9999999974948551,0.9919935413108678,0.9999999978661473,0.9959841755847403
0.13,8.57138197316297,0.400000055986851,-7.756250950088607e-10,0.9999999975133776,0.9919935413263813,0.999999997875347,0.9959841755969223
0.132,8.571381945073197,0.4000000552929204,-7.848985238253749e-10,0.9999999975321242,0.9919935413420827,0.999999997884658,0.9959841756092519
0.134,8.571381916651672,0.4000000545907941,-7.940556131405848e-10,0.9999999975510925,0.9919935413579696,0.999999997894079,0.9959841756217271
0.136,8.571381887902607,0.40000005388057636,-8.030950056698355e-10,0.9999999975702791,0.9919935413740394,0.9999999979036085,0.9959841756343459
0.138,8.57138185883026,0.40000005316237225,-8.120153615666832e-10,0.9999999975896815,0.99199354139029,0.9999999979132451,0.9959841756471067
0.14,8.571381829438945,0.40000005243628833,-8.208153586480242e-10,0.9999999976092968,0.991993541406719,0.9999999979229877,0.9959841756600076
0.142,8.571381799733016,0.40000005170243225,-8.294936925467503e-10,0.9999999976291222,0.9919935414233237,0.9999999979328343,0.9959841756730464
0.144,8.571381769716874,0.4000000509609125,-8.380490769553814e-10,0.9999999976491544,0.9919935414401019,0.9999999979427838,0.9959841756862216
0.146,8.571381739394972,0.40000005021183954,-8.464802437602169e-10,0.9999999976693908,0.9919935414570511,0.9999999979528348,0.9959841756995308
0.148,8.571381708771803,0.4000000494553238,-8.547859432741745e-10,0.9999999976898283,0.9919935414741686,0.9999999979629856,0.9959841757129725
0.15,8.571381677851905,0.4000000486914776,-8.629649444125758e-10,0.9999999977104637,0.9919935414914519,0.9999999979732346,0.9959841757265442
0.152,8.571381646639862,0.4000000479204145,-8.710160348720148e-10,0.9999999977312942,0.9919935415088985,0.9999999979835805,0.9959841757402441
0.154,8.571381615140302,0.40000004714224846,-8.78938021296892e-10,0.9999999977523165,0.9919935415265059,0.9999999979940217,0.9959841757540703
0.156,8.57138158335789,0.4000000463570947,-8.867297294613674e-10,0.9999999977735275,0.9919935415442713,0.9999999980045567,0.9959841757680206
0.158,8.571381551297339,0.40000004556506996,-8.943900044729015e-10,0.9999999977949244,0.9919935415621923,0.9999999980151839,0.995984175782093
0.16,8.5713815189634,0.40000004476629136,-9.019177109002388e-10,0.9999999978165035,0.991993541580266,0.9999999980259018,0.9959841757962854
0.162,8.571381486360867,0.40000004396087746,-9.093117329676979e-10,0.999999997838262,0.9919935415984898,0.9999999980367087,0.9959841758105958
0.164,8.571381453494572,0.4000000431489475,-9.165709747062841e-10,0.9999999978601964,0.9919935416168613,0.9999999980476029,0.9959841758250219
0.166,8.571381420369388,0.40000004233062203,-9.236943601526048e-10,0.9999999978823038,0.9919935416353772,0.999999998058583,0.9959841758395616
0.168,8.571381386990222,0.40000004150602214,-9.306808334614342e-10,0.9999999979045806,0.9919935416540353,0.9999999980696473,0.9959841758542128
0.17,8.571381353362023,0.40000004067527006,-9.3752935905991e-10,0.9999999979270234,0.9919935416728324,0.9999999980807941,0.9959841758689733
0.172,8.571381319489776,0.40000003983848914,-9.44238921868037e-10,0.9999999979496292,0.9919935416917662,0.9999999980920219,0.995984175883841
0.174,8.5713812853785,0.4000000389958032,-9.508085273572816e-10,0.9999999979723946,0.9919935417108333,0.9999999981033288,0.9959841758988136
0.176,8.571381251033253,0.4000000381473372,-9.572372017926623e-10,0.9999999979953161,0.9919935417300313,0.9999999981147133,0.9959841759138889
0.178,8.571381216459123,0.4000000372932168,-9.635239922774669e-10,0.9999999980183902,0.9919935417493574,0.9999999981261738,0.9959841759290645
0.18,8.571381181661238,0.40000003643356885,-9.696679669799231e-10,0.9999999980416139,0.9919935417688083,0.9999999981377082,0.9959841759443385
0.182,8.571381146644754,0.40000003556852065,-9.756682152133814e-10,0.9999999980649834,0.9919935417883816,0.9999999981493153,0.9959841759597083
0.184,8.571381111414862,0.40000003469820045,-9.815238476136422e-10,0.9999999980884954,0.9919935418080741,0.999999998160993,0.995984175975172
0.186,8.571381075976783,0.400000033822737,-9.872339962607722e-10,0.999999998112146,0.991993541827883,0.9999999981727399,0.9959841759907269
0.188,8.571381040335769,0.4000000329422604,-9.927978147562026e-10,0.9999999981359324,0.9919935418478052,0.9999999981845538,0.9959841760063709
0.19,8.571381004497105,0.40000003205690093,-9.982144784355228e-10,0.9999999981598507,0.9919935418678381,0.9999999981964334,0.9959841760221017
0.192,8.571380968466103,0.40000003116679006,-1.0034831844224488e-09,0.9999999981838972,0.9919935418879785,0.9999999982083767,0.9959841760379169
0.194,8.571380932248102,0.4000000302720594,-1.0086031517799372e-09,0.9999999982080685,0.9919935419082232,0.9999999982203819,0.9959841760538141
0.196,8.571380895848469,0.4000000293728418,-1.0135736216104134e-09,0.9999999982323612,0.9919935419285696,0.9999999982324475,0.9959841760697911
0.198,8.571380859272603,0.4000000284692705,-1.0183938571760462e-09,0.9999999982567712,0.9919935419490145,0.9999999982445713,0.9959841760858454
0.2,8.571380822525922,0.4000000275614795,-1.023063144015938e-09,0.9999999982812954,0.9919935419695546,0.9999999982567518,0.9959841761019746
0.202,8.571380785613876,0.4000000266496032,-1.0275807900355587e-09,0.99999999830593,0.9919935419901875,0.9999999982689872,0.9959841761181767
0.204,8.571380748541934,0.4000000257337769,-1.0319461256239367e-09,0.9999999983306712,0.9919935420109097,0.9999999982812755,0.9959841761344488
0.206,8.57138071131559,0.40000002481413616,-1.0361585037322995e-09,0.9999999983555156,0.9919935420317181,0.9999999982936151,0.9959841761507886
0.208,8.571380673940364,0.4000000238908175,-1.0402172999928057e-09,0.9999999983804592,0.9919935420526098,0.999999998306004,0.9959841761671938
0.21,8.571380636421797,0.4000000229639576,-1.044121912803354e-09,0.9999999984054985,0.9919935420735816,0.9999999983184402,0.9959841761836619
0.212,8.571380598765444,0.40000002203369395,-1.0478717634216432e-09,0.9999999984306298,0.9919935420946304,0.9999999983309223,0.9959841762001905
0.214,8.571380560976891,0.40000002110016447,-1.051466296026852e-09,0.9999999984558493,0.9919935421157532,0.9999999983434482,0.995984176216777
0.216,8.571380523061741,0.40000002016350755,-1.0549049778337445e-09,0.9999999984811533,0.9919935421369467,0.999999998356016,0.9959841762334193
0.218,8.57138048502561,0.4000000192238618,-1.05818729914664e-09,0.9999999985065381,0.9919935421582078,0.999999998368624,0.9959841762501146
0.22,8.571380446874137,0.4000000182813667,-1.0613127734519315e-09,0.9999999985319998,0.9919935421795334,0.9999999983812702,0.9959841762668606
0.222,8.571380408612978,0.4000000173361619,-1.064280937502894e-09,0.9999999985575347,0.9919935422009203,0.9999999983939527,0.9959841762836548
0.224,8.571380370247804,0.4000000163883875,-1.0670913513335625e-09,0.9999999985831391,0.9919935422223654,0.9999999984066698,0.9959841763004944
0.226,8.5713803317843,0.4000000154381839,-1.0697435983712964e-09,0.999999998608809,0.9919935422438653,0.9999999984194192,0.9959841763173772
0.228,8.571380293228167,0.40000001448569206,-1.0722372855061686e-09,0.9999999986345407,0.9919935422654171,0.9999999984321996,0.9959841763343008
0.23,8.57138025458512,0.40000001353105313,-1.0745720431171784e-09,0.9999999986603305,0.9919935422870174,0.9999999984450086,0.9959841763512625
0.232,8.57138021586089,0.40000001257440854,-1.0767475251354734e-09,0.9999999986861744,0.9919935423086632,0.9999999984578447,0.9959841763682599
0.234,8.571380177061213,0.4000000116159004,-1.0787634091060279e-09,0.9999999987120688,0.9919935423303512,0.9999999984707059,0.9959841763852904
0.236,8.571380138191842,0.4000000106556702,-1.0806193962369862e-09,0.9999999987380097,0.991993542352078,0.99999999848359,0.9959841764023513
0.238,8.571380099258539,0.40000000969386074,-1.0823152114197091e-09,0.9999999987639931,0.9919935423738406,0.9999999984964953,0.9959841764194405
0.24,8.571380060267073,0.40000000873061436,-1.0838506033027876e-09,0.9999999987900153,0.9919935423956358,0.9999999985094199,0.9959841764365551
0.242,8.571380021223222,0.400000007766074,-1.0852253443136312e-09,0.9999999988160727,0.99199354241746,0.9999999985223619,0.9959841764536926
0.244,8.571379982132777,0.40000000680038245,-1.0864392306708039e-09,0.9999999988421612,0.9919935424393106,0.9999999985353193,0.9959841764708508
0.246,8.571379943001531,0.40000000583368295,-1.0874920824626644e-09,0.9999999988682767,0.9919935424611839,0.9999999985482904,0.9959841764880268
0.248,8.571379903835282,0.4000000048661188,-1.0883837436134434e-09,0.9999999988944157,0.9919935424830767,0.9999999985612729,0.9959841765052182
0.25,8.571379864639837,0.4000000038978333,-1.0891140819850132e-09,0.999999998920574,0.9919935425049858,0.999999998574265,0.9959841765224223
0.252,8.571379825421007,0.40000000292897026,-1.089682989302873e-09,0.9999999989467481,0.991993542526908,0.999999998587265,0.9959841765396368
0.254,8.5713797861846,0.4000000019596729,-1.0900903812610043e-09,0.9999999989729339,0.99199354254884,0.9999999986002708,0.9959841765568589
0.256,8.571379746936438,0.40000000099008515,-1.0903361974632743e-09,0.9999999989991274,0.9919935425707787,0.9999999986132804,0.9959841765740861
0.258,8.571379707682334,0.40000000002035063,-1.090420401478948e-09,0.9999999990253252,0.9919935425927204,0.9999999986262921,0.9959841765913161
0.26,8.571379668428108,0.399999999050613,-1.0903429808288104e-09,0.9999999990515228,0.9919935426146624,0.9999999986393038,0.995984176608546
0.262,8.571379629179578,0.3999999980810162,-1.0901039469712881e-09,0.9999999990777168,0.9919935426366013,0.9999999986523136,0.9959841766257735
0.264,8.571379589942563,0.39999999711170375,-1.0897033353487093e-09,0.9999999991039028,0.9919935426585336,0.9999999986653195,0.9959841766429958
0.266,8.571379550722876,0.3999999961428195,-1.08914120533796e-09,0.9999999991300774,0.9919935426804564,0.9999999986783198,0.9959841766602107
0.268,8.571379511526331,0.39999999517450696,-1.0884176402659043e-09,0.9999999991562366,0.9919935427023662,0.9999999986913124,0.9959841766774153
0.27,8.57137947235874,0.3999999942069097,-1.0875327473754603e-09,0.9999999991823766,0.9919935427242597,0.9999999987042955,0.9959841766946073
0.272,8.571379433225909,0.39999999324017094,-1.0864866578410204e-09,0.9999999992084933,0.9919935427461337,0.9999999987172669,0.995984176711784
0.274,8.571379394133634,0.3999999922744341,-1.085279526692894e-09,0.9999999992345827,0.9919935427679852,0.9999999987302249,0.9959841767289428
0.276,8.571379355087712,0.39999999130984265,-1.0839115328558576e-09,0.9999999992606414,0.991993542789811,0.9999999987431676,0.9959841767460814
0.278,8.57137931609393,0.3999999903465391,-1.0823828791090627e-09,0.9999999992866653,0.9919935428116072,0.9999999987560929,0.995984176763197
